Radius Mass
0	0
0.0050000000000000001	2.9581032918797427e-07
0.01	2.3664134542144546e-06
0.014999999999999999	7.98625627447126e-06
0.02	1.8929093896456827e-05
0.025000000000000001	3.6967643737329576e-05
0.029999999999999999	6.3873239628461107e-05
0.035000000000000003	0.00010141548591898969
0.040000000000000001	0.00015136191157937359
0.044999999999999998	0.00021547762430494365
0.050000000000000003	0.00029552496461945796
0.055	0.00039326315997865454
0.059999999999999998	0.00051044797887380344
0.065000000000000002	0.00064883138493526248
0.070000000000000007	0.00081016119103602792
0.074999999999999997	0.00099618071339529221
0.080000000000000002	0.0012086284256819892
0.085000000000000006	0.0014492376131183542
0.089999999999999997	0.0017197360265834786
0.095000000000000001	0.0020218455367168584
0.10000000000000001	0.0023572817880219503
0.105	0.0027277538529697177
0.11	0.0031349638861022
0.115	0.0035806067781360422
0.12	0.0040663698100660865
0.125	0.0045939323072688729
0.13	0.0051649652936062423
0.13500000000000001	0.0057811311455288573
0.14000000000000001	0.0064440832461797638
0.14499999999999999	0.0071554656394979699
0.14999999999999999	0.0079169126843219341
0.155	0.0087300487084932023
0.16	0.0095964876629599134
0.16500000000000001	0.010517832775880344
0.17000000000000001	0.011495676206726455
0.17500000000000002	0.012531598700387532
0.17999999999999999	0.013627169241273608
0.185	0.014783944707419144
0.19	0.016003469524586464
0.19500000000000001	0.01724172059415903
0.20000000000000001	0.018531191393775216
0.20500000000000002	0.019885124945806951
0.20999999999999999	0.021304485442714322
0.215	0.022791442386223638
0.22	0.024346313209912214
0.22500000000000001	0.025971442520464644
0.23000000000000001	0.027667653404036832
0.23500000000000001	0.029436310869569403
0.23999999999999999	0.031279323892110265
0.245	0.033197193636722078
0.25	0.035192196391859477
0.255	0.037264883398724948
0.26000000000000001	0.039416626378140994
0.26500000000000001	0.041649351333944158
0.27000000000000002	0.043963838626072803
0.27500000000000002	0.046360535137124875
0.28000000000000003	0.048842193070614624
0.28500000000000003	0.051408745588064811
0.28999999999999998	0.054061415253038599
0.29499999999999998	0.056802834247541394
0.29999999999999999	0.059632651618356583
0.30499999999999999	0.062552012861264703
0.31	0.065563049927186118
0.315	0.068665066561792096
0.32000000000000001	0.071861421014715224
0.32500000000000001	0.075151774627984586
0.33000000000000002	0.078536720876952598
0.33500000000000002	0.082018604767827311
0.34000000000000002	0.085596820771740176
0.34500000000000003	0.089273039483424146
0.35000000000000003	0.093049153882658636
0.35499999999999998	0.096924200907585578
0.35999999999999999	0.10090019963865737
0.36499999999999999	0.10497763005948162
0.37	0.1091577033183645
0.375	0.11344003310816488
0.38	0.1178265700250367
0.38500000000000001	0.12231766670790441
0.39000000000000001	0.12691444719389611
0.39500000000000002	0.13161631958819825
0.40000000000000002	0.13642498255694854
0.40500000000000003	0.14133996647900859
0.41000000000000003	0.14636292099708012
0.41500000000000004	0.15149438796174391
0.41999999999999998	0.1567339915759057
0.42499999999999999	0.16208308802095098
0.42999999999999999	0.16754076074651136
0.435	0.17310781482349866
0.44	0.17878555191708628
0.44500000000000001	0.1845743080327846
0.45000000000000001	0.19047339847490832
0.45500000000000002	0.19648258652302128
0.46000000000000002	0.2026035010913772
0.46500000000000002	0.20883532873918284
0.47000000000000003	0.21517767057046849
0.47500000000000003	0.22163234393034167
0.47999999999999998	0.22819852395692816
0.48499999999999999	0.23487553801902297
0.48999999999999999	0.24166396003504853
0.495	0.24856302667228944
0.5	0.25557389926930868
0.505	0.26269506902904499
0.51000000000000001	0.26992651631458142
0.51500000000000001	0.27726741253937753
0.52000000000000002	0.28471903550935979
0.52500000000000002	0.29227989424783579
0.53000000000000003	0.29994896591999581
0.53500000000000003	0.30772772247213664
0.54000000000000004	0.31561393080399908
0.54500000000000004	0.32211060479260906
0.55000000000000004	0.32666897571126374
0.55500000000000005	0.33123463600148667
0.56000000000000005	0.33590366316280301
0.56500000000000006	0.34069535687852626
0.57000000000000006	0.34547941719000602
0.57500000000000007	0.35039184173092452
0.57999999999999996	0.35536581373392728
0.58499999999999996	0.36040524363332549
0.58999999999999997	0.36550945112981559
0.59499999999999997	0.37068116691344444
0.59999999999999998	0.3759911696236487
0.60499999999999998	0.38130118017732378
0.60999999999999999	0.38670380366789175
0.61499999999999999	0.39212793796200857
0.62	0.3977296401334498
0.625	0.40335567530183736
0.63	0.40900720292006909
0.63500000000000001	0.41478889179723022
0.64000000000000001	0.4207033175810202
0.64500000000000002	0.42656030771896913
0.65000000000000002	0.43253190435585509
0.65500000000000003	0.43866411045667258
0.66000000000000003	0.44482499641760592
0.66500000000000004	0.45099698801197452
0.67000000000000004	0.45733162508755243
0.67500000000000004	0.46369913265294849
0.68000000000000005	0.47009863972500004
0.68500000000000005	0.47666861405353628
0.69000000000000006	0.48325066512822434
0.69500000000000006	0.48986528631239823
0.70000000000000007	0.49665534696175573
0.70499999999999996	0.50339948116581645
0.70999999999999996	0.51032069689193815
0.71499999999999997	0.51731448641741717
0.71999999999999997	0.52430991293177276
0.72499999999999998	0.53146458952624487
0.72999999999999998	0.53859270517799307
0.73499999999999999	0.54588403298941823
0.73999999999999999	0.55321404973122967
0.745	0.56058269653458415
0.75	0.56811690405150084
0.755	0.57569053394873648
0.76000000000000001	0.5833053710106092
0.76500000000000001	0.59098375301240125
0.77000000000000002	0.59874361587244707
0.77500000000000002	0.60654423160093873
0.78000000000000003	0.61453910512405729
0.78500000000000003	0.62257803174281756
0.79000000000000004	0.63056662104855632
0.79500000000000004	0.63875614021536042
0.80000000000000004	0.64698695358504221
0.80500000000000005	0.65523366660750626
0.81000000000000005	0.66354802702630822
0.81500000000000006	0.67204107902754417
0.82000000000000006	0.68057856661904181
0.82500000000000007	0.68908971289152421
0.83000000000000007	0.69777962446436559
0.83499999999999996	0.70644528809167295
0.83999999999999997	0.71529188818748257
0.84499999999999997	0.7240415628082908
0.84999999999999998	0.73300072199822763
0.85499999999999998	0.7419772431030015
0.85999999999999999	0.75114010404983567
0.86499999999999999	0.76022928886995789
0.87	0.7694051586314421
0.875	0.77862237805401546
0.88	0.78798452481545578
0.88500000000000001	0.79735916598372614
0.89000000000000001	0.80687943768537129
0.89500000000000002	0.81642743620958458
0.90000000000000002	0.8252482081354201
0.90500000000000003	0.83420689092332334
0.91000000000000003	0.84319579554474122
0.91500000000000004	0.85212861330850909
0.92000000000000004	0.86106584860292479
0.92500000000000004	0.86999249160892633
0.93000000000000005	0.8788952480898381
0.93500000000000005	0.88785239928399085
0.94000000000000006	0.89640628207099404
0.94500000000000006	0.90477096050247341
0.95000000000000007	0.9133793946744192
0.95500000000000007	0.9219880211380983
0.95999999999999996	0.93081190150307758
0.96499999999999997	0.93948002272696418
0.96999999999999997	0.94816132637040718
0.97499999999999998	0.95701103756134664
0.97999999999999998	0.96579801247649766
0.98499999999999999	0.97460548258623125
0.98999999999999999	0.98354775023677676
0.995	0.99244123897994763
1	0.99999999999999956
