Radius	RhoND	Mass	phi	Temp	Fe	O	Si	Mg	Ni	Ca	Al
0.0	2.366505693266902	0.0	1.7853167936583336	7200.0	0.855	0.0	0.06	0.0	0.052	0.0	0.0
0.005	2.3664672603283816	2.958103291879743e-07	1.7852872126254151	7175.132708821233	0.855	0.0	0.06	0.0	0.052	0.0	0.0
0.01	2.36635196151282	2.3664134542144537e-06	1.7851984712561408	7150.265417642467	0.855	0.0	0.06	0.0	0.052	0.0	0.0
0.015	2.3661597968202166	7.98625627447126e-06	1.7850505747389578	7125.3981264637	0.855	0.0	0.06	0.0	0.052	0.0	0.0
0.02	2.3658907662505717	1.8929093896456827e-05	1.7848435317212776	7100.530835284933	0.855	0.0	0.06	0.0	0.052	0.0	0.0
0.025	2.3655448698038866	3.6967643737329576e-05	1.7845773543094754	7075.663544106166	0.855	0.0	0.06	0.0	0.052	0.0	0.0
0.03	2.3651221074801594	6.387323962846109e-05	1.7842520580688914	7050.7962529274	0.855	0.0	0.06	0.0	0.052	0.0	0.0
0.035	2.364622479279391	0.00010141548591898969	1.7838676620238303	7025.928961748633	0.855	0.0	0.06	0.0	0.052	0.0	0.0
0.04	2.3640459852015816	0.00015136191157937362	1.783424188657561	7001.061670569867	0.855	0.0	0.06	0.0	0.052	0.0	0.0
0.045	2.3633926252467305	0.0002154776243049436	1.7829216639123169	6976.1943793911005	0.855	0.0	0.06	0.0	0.052	0.0	0.0
0.05	2.362662399414839	0.000295524964619458	1.7823601171892964	6951.327088212334	0.855	0.0	0.06	0.0	0.052	0.0	0.0
0.055	2.361855307705905	0.00039326315997865454	1.7817395813486616	6926.459797033567	0.855	0.0	0.06	0.0	0.052	0.0	0.0
0.06	2.3609713501199305	0.0005104479788738033	1.7810600927095397	6901.592505854801	0.855	0.0	0.06	0.0	0.052	0.0	0.0
0.065	2.3600105266569145	0.0006488313849352625	1.7803216910500212	6876.725214676035	0.855	0.0	0.06	0.0	0.052	0.0	0.0
0.07	2.3589728373168573	0.0008101611910360277	1.7795244196071631	6851.857923497268	0.855	0.0	0.06	0.0	0.052	0.0	0.0
0.07499999999999997	2.3578582820997593	0.0009961807133952922	1.7786683250769848	6826.990632318501	0.855	0.0	0.06	0.0	0.052	0.0	0.0
0.08	2.356666861005619	0.0012086284256819892	1.7777534576144716	6802.123341139735	0.855	0.0	0.06	0.0	0.052	0.0	0.0
0.085	2.3553985740344383	0.0014492376131183544	1.7767798708335725	6777.256049960968	0.855	0.0	0.06	0.0	0.052	0.0	0.0
0.08999999999999997	2.354053421186216	0.0017197360265834786	1.7757476218072012	6752.388758782201	0.855	0.0	0.06	0.0	0.052	0.0	0.0
0.095	2.352631402460952	0.0020218455367168584	1.7746567710672358	6727.521467603435	0.855	0.0	0.06	0.0	0.052	0.0	0.0
0.1	2.351132517858648	0.0023572817880219503	1.7735073826045196	6702.654176424669	0.855	0.0	0.06	0.0	0.052	0.0	0.0
0.105	2.3495567673793007	0.0027277538529697177	1.7722995238688588	6677.786885245901	0.855	0.0	0.06	0.0	0.052	0.0	0.0
0.11	2.347904151022913	0.0031349638861022	1.771033265769025	6652.919594067135	0.855	0.0	0.06	0.0	0.052	0.0	0.0
0.115	2.3461746687894847	0.003580606778136042	1.7697086826727553	6628.052302888368	0.855	0.0	0.06	0.0	0.052	0.0	0.0
0.12	2.344368320679015	0.0040663698100660865	1.768325852406749	6603.185011709602	0.855	0.0	0.06	0.0	0.052	0.0	0.0
0.125	2.342485106691504	0.004593932307268873	1.766884856256672	6578.317720530835	0.855	0.0	0.06	0.0	0.052	0.0	0.0
0.13	2.340525026826952	0.005164965293606242	1.7653857789671532	6553.450429352069	0.855	0.0	0.06	0.0	0.052	0.0	0.0
0.135	2.338488081085357	0.005781131145528857	1.7638287087417863	6528.583138173302	0.855	0.0	0.06	0.0	0.052	0.0	0.0
0.14	2.3363742694667224	0.006444083246179764	1.76221373724313	6503.715846994536	0.855	0.0	0.06	0.0	0.052	0.0	0.0
0.145	2.3341835919710463	0.00715546563949797	1.7605409595927073	6478.848555815769	0.855	0.0	0.06	0.0	0.052	0.0	0.0
0.15	2.331916048598329	0.007916912684321934	1.7588104743710051	6453.981264637002	0.855	0.0	0.06	0.0	0.052	0.0	0.0
0.155	2.3295716393485693	0.008730048708493202	1.7570223836174756	6429.113973458236	0.855	0.0	0.06	0.0	0.052	0.0	0.0
0.16	2.3271503642217697	0.009596487662959912	1.7551767928305348	6404.2466822794695	0.855	0.0	0.06	0.0	0.052	0.0	0.0
0.165	2.324652223217928	0.010517832775880344	1.7532738109675634	6379.379391100702	0.855	0.0	0.06	0.0	0.052	0.0	0.0
0.17	2.3220772163370453	0.011495676206726457	1.7513135504449069	6354.512099921935	0.855	0.0	0.06	0.0	0.052	0.0	0.0
0.17500000000000002	2.319425343579121	0.012531598700387529	1.7492961271378742	6329.644808743169	0.855	0.0	0.06	0.0	0.052	0.0	0.0
0.18	2.316696604944156	0.013627169241273608	1.7472216603807398	6304.777517564403	0.855	0.0	0.06	0.0	0.052	0.0	0.0
0.185	2.3138910004321493	0.014783944707419144	1.7450902729667428	6279.910226385636	0.855	0.0	0.06	0.0	0.052	0.0	0.0
0.19	2.3110085300431016	0.016003469524586464	1.7429020911480857	6255.042935206869	0.855	0.0	0.06	0.0	0.052	0.0	0.0
0.195	2.2053860108875174	0.01724172059415903	1.7406602396869686	6230.175644028102	0.855	0.0	0.06	0.0	0.052	0.0	0.0
0.2	2.2023866447400966	0.018531191393775216	1.7383684622765236	6205.308352849336	0.855	0.0	0.06	0.0	0.052	0.0	0.0
0.205	2.1993308215129668	0.019885124945806958	1.7360273285523182	6180.44106167057	0.855	0.0	0.06	0.0	0.052	0.0	0.0
0.21	2.1962175711005645	0.021304485442714318	1.7336366570202286	6155.573770491803	0.855	0.0	0.06	0.0	0.052	0.0	0.0
0.215	2.1930459233973267	0.022791442386223642	1.7311962836017087	6130.706479313036	0.855	0.0	0.06	0.0	0.052	0.0	0.0
0.22	2.1898149082976923	0.024346313209912214	1.7287060899526718	6105.83918813427	0.855	0.0	0.06	0.0	0.052	0.0	0.0
0.225	2.1865235556960974	0.025971442520464644	1.7261659920807788	6080.971896955503	0.855	0.0	0.06	0.0	0.052	0.0	0.0
0.23	2.1831708954869806	0.027667653404036832	1.7235759066524965	6056.104605776737	0.855	0.0	0.06	0.0	0.052	0.0	0.0
0.235	2.1797559575647787	0.029436310869569406	1.7209357988581764	6031.23731459797	0.855	0.0	0.06	0.0	0.052	0.0	0.0
0.24	2.176277771823929	0.031279323892110265	1.7182456265768298	6006.370023419204	0.855	0.0	0.06	0.0	0.052	0.0	0.0
0.245	2.1727353681588717	0.033197193636722085	1.7155053767314967	5981.502732240437	0.855	0.0	0.06	0.0	0.052	0.0	0.0
0.25	2.1691277764640406	0.035192196391859484	1.712715048574418	5956.63544106167	0.855	0.0	0.06	0.0	0.052	0.0	0.0
0.255	2.1654540266338755	0.03726488339872495	1.7098746470163706	5931.768149882903	0.855	0.0	0.06	0.0	0.052	0.0	0.0
0.26	2.1617131485628143	0.039416626378140994	1.7069842178414332	5906.900858704137	0.855	0.0	0.06	0.0	0.052	0.0	0.0
0.265	2.157904172145292	0.04164935133394417	1.7040437913922242	5882.033567525371	0.855	0.0	0.06	0.0	0.052	0.0	0.0
0.27	2.154026127275749	0.0439638386260728	1.701053404193835	5857.166276346604	0.855	0.0	0.06	0.0	0.052	0.0	0.0
0.275	2.1500780438486213	0.04636053513712488	1.6980131482981358	5832.298985167838	0.855	0.0	0.06	0.0	0.052	0.0	0.0
0.28	2.1460589517583464	0.048842193070614624	1.6949231007328989	5807.4316939890705	0.855	0.0	0.06	0.0	0.052	0.0	0.0
0.28500000000000003	2.141967880899363	0.0514087455880648	1.6917833384252403	5782.564402810304	0.855	0.0	0.06	0.0	0.052	0.0	0.0
0.29	2.137803861166107	0.0540614152530386	1.6885939864805335	5757.697111631538	0.855	0.0	0.06	0.0	0.052	0.0	0.0
0.295	2.133565922453017	0.05680283424754139	1.6853551325072866	5732.829820452771	0.855	0.0	0.06	0.0	0.052	0.0	0.0
0.3	2.129253094654532	0.059632651618356576	1.6820668735174158	5707.962529274004	0.855	0.0	0.06	0.0	0.052	0.0	0.0
0.305	2.1248644076650858	0.0625520128612647	1.6787293571465742	5683.0952380952385	0.855	0.0	0.06	0.0	0.052	0.0	0.0
0.31	2.120398891379119	0.06556304992718613	1.6753427088896988	5658.227946916471	0.855	0.0	0.06	0.0	0.052	0.0	0.0
0.315	2.1158555756910675	0.0686650665617921	1.6719070800278264	5633.360655737704	0.855	0.0	0.06	0.0	0.052	0.0	0.0
0.32	2.1112334904953705	0.07186142101471521	1.66842261637295	5608.493364558938	0.855	0.0	0.06	0.0	0.052	0.0	0.0
0.325	2.106531665686464	0.07515177462798457	1.6648894469210769	5583.626073380172	0.855	0.0	0.06	0.0	0.052	0.0	0.0
0.33	2.101749131158785	0.07853672087695261	1.661307751668472	5558.758782201405	0.855	0.0	0.06	0.0	0.052	0.0	0.0
0.335	2.0968849168067747	0.08201860476782731	1.6576776947331264	5533.891491022638	0.855	0.0	0.06	0.0	0.052	0.0	0.0
0.34	2.0919380525248665	0.08559682077174018	1.6539994505047764	5509.024199843872	0.855	0.0	0.06	0.0	0.052	0.0	0.0
0.34500000000000003	2.0869075682075	0.08927303948342415	1.6502732180907782	5484.156908665105	0.855	0.0	0.06	0.0	0.052	0.0	0.0
0.35000000000000003	2.0817924937491123	0.09304915388265864	1.646499165670372	5459.289617486338	0.855	0.0	0.06	0.0	0.052	0.0	0.0
0.355	2.076591859044141	0.09692420090758556	1.642677485613493	5434.422326307572	0.855	0.0	0.06	0.0	0.052	0.0	0.0
0.36	2.0713046939870243	0.10090019963865736	1.6388083905729052	5409.555035128806	0.855	0.0	0.06	0.0	0.052	0.0	0.0
0.365	2.0659300284721978	0.10497763005948164	1.6348920821324002	5384.687743950039	0.855	0.0	0.06	0.0	0.052	0.0	0.0
0.37	2.0604668923941007	0.1091577033183645	1.6309287670823116	5359.820452771272	0.855	0.0	0.06	0.0	0.052	0.0	0.0
0.375	2.0549143156471694	0.11344003310816488	1.6269186714651829	5334.953161592506	0.855	0.0	0.06	0.0	0.052	0.0	0.0
0.38	2.0492713281258443	0.1178265700250367	1.6228620260739128	5310.085870413739	0.855	0.0	0.06	0.0	0.052	0.0	0.0
0.385	2.0435369597245594	0.1223176667079044	1.6187590519588675	5285.218579234972	0.855	0.0	0.06	0.0	0.052	0.0	0.0
0.39	2.0377102403377534	0.12691444719389613	1.6146099752567276	5260.351288056206	0.855	0.0	0.06	0.0	0.052	0.0	0.0
0.395	2.0317901998598646	0.13161631958819825	1.610415041051639	5235.4839968774395	0.855	0.0	0.06	0.0	0.052	0.0	0.0
0.4	2.0257758681853306	0.13642498255694854	1.6061745027727612	5210.616705698672	0.855	0.0	0.06	0.0	0.052	0.0	0.0
0.405	2.0196662752085874	0.1413399664790086	1.6018886181514624	5185.749414519906	0.855	0.0	0.06	0.0	0.052	0.0	0.0
0.41	2.0134604508240734	0.14636292099708012	1.5975576498939623	5160.88212334114	0.855	0.0	0.06	0.0	0.052	0.0	0.0
0.415	2.0071574249262274	0.15149438796174391	1.5931818492909706	5136.014832162373	0.855	0.0	0.06	0.0	0.052	0.0	0.0
0.42	2.000756227409485	0.1567339915759057	1.588761485947949	5111.147540983607	0.855	0.0	0.06	0.0	0.052	0.0	0.0
0.425	1.9942558881682857	0.16208308802095098	1.5842968346791833	5086.2802498048395	0.855	0.0	0.06	0.0	0.052	0.0	0.0
0.43	1.9876554370970647	0.16754076074651136	1.579788181324248	5061.412958626073	0.855	0.0	0.06	0.0	0.052	0.0	0.0
0.435	1.9809539040902613	0.17310781482349866	1.5752358292933364	5036.545667447306	0.855	0.0	0.06	0.0	0.052	0.0	0.0
0.44	1.9741503190423129	0.17878555191708628	1.5706400683510755	5011.67837626854	0.855	0.0	0.06	0.0	0.052	0.0	0.0
0.445	1.967243711847656	0.1845743080327846	1.5660011811534331	4986.811085089773	0.855	0.0	0.06	0.0	0.052	0.0	0.0
0.45	1.9602331124007293	0.19047339847490832	1.561319468244031	4961.943793911007	0.855	0.0	0.06	0.0	0.052	0.0	0.0
0.455	1.9531175505959697	0.19648258652302128	1.5565952532649143	4937.07650273224	0.855	0.0	0.06	0.0	0.052	0.0	0.0
0.46	1.9458960563278145	0.2026035010913772	1.5518288530624722	4912.209211553473	0.855	0.0	0.06	0.0	0.052	0.0	0.0
0.465	1.9385676594907024	0.20883532873918284	1.547020584004154	4887.341920374707	0.855	0.0	0.06	0.0	0.052	0.0	0.0
0.47	1.9311313899790696	0.21517767057046847	1.5421707851443518	4862.47462919594	0.855	0.0	0.06	0.0	0.052	0.0	0.0
0.475	1.923586277687355	0.22163234393034167	1.5372797866380312	4837.607338017175	0.855	0.0	0.06	0.0	0.052	0.0	0.0
0.48	1.9159313525099944	0.22819852395692816	1.5323479141383518	4812.740046838408	0.855	0.0	0.06	0.0	0.052	0.0	0.0
0.485	1.9081656443414268	0.2348755380190229	1.527375515806794	4787.8727556596405	0.855	0.0	0.06	0.0	0.052	0.0	0.0
0.49	1.9002881830760887	0.2416639600350485	1.5223629454661949	4763.005464480874	0.855	0.0	0.06	0.0	0.052	0.0	0.0
0.495	1.8922979986084199	0.24856302667228944	1.5173105623715744	4738.138173302108	0.855	0.0	0.06	0.0	0.052	0.0	0.0
0.5	1.8841941208328552	0.2555738992693087	1.5122187247494323	4713.270882123341	0.855	0.0	0.06	0.0	0.052	0.0	0.0
0.505	1.8759755796438329	0.2626950690290449	1.507087796373061	4688.403590944575	0.855	0.0	0.06	0.0	0.052	0.0	0.0
0.51	1.8676414049357912	0.2699265163145815	1.5019181575822833	4663.536299765808	0.855	0.0	0.06	0.0	0.052	0.0	0.0
0.515	1.859190626603168	0.27726741253937753	1.4967101968872267	4638.669008587041	0.855	0.0	0.06	0.0	0.052	0.0	0.0
0.52	1.8506222745403984	0.2847190355093597	1.4914642980668238	4613.801717408274	0.855	0.0	0.06	0.0	0.052	0.0	0.0
0.525	1.8419353786419232	0.2922798942478357	1.4861808457339438	4588.934426229508	0.855	0.0	0.06	0.0	0.052	0.0	0.0
0.53	1.8331289688021768	0.2999489659199958	1.4808602458149625	4564.067135050741	0.855	0.0	0.06	0.0	0.052	0.0	0.0
0.535	1.8242020749156007	0.30772772247213664	1.4755028975907103	4539.199843871974	0.855	0.0	0.06	0.0	0.052	0.0	0.0
0.54	1.8151537268766293	0.3156139308039991	1.4701092037339425	4514.332552693208	0.855	0.0	0.06	0.0	0.052	0.0	0.0
0.545	1.0104681132296442	0.32211060479260906	1.4646921824661499	4481.464821618651	0.0626	0.44	0.21	0.228	0.002	0.023	0.0235
0.55	1.0077758775021486	0.3266689757112637	1.4592812983485013	4437.712460941522	0.0626	0.44	0.21	0.228	0.002	0.023	0.0235
0.555	1.0050728632634738	0.3312346360014867	1.4538931801351194	4393.960100264395	0.0626	0.44	0.21	0.228	0.002	0.023	0.0235
0.56	1.0023590705136198	0.33590366316280296	1.4485270020854537	4350.207739587267	0.0626	0.44	0.21	0.228	0.002	0.023	0.0235
0.5650000000000001	0.9996344992525869	0.34069535687852626	1.4431810542604473	4306.455378910138	0.0626	0.44	0.21	0.228	0.002	0.023	0.0235
0.5700000000000001	0.9968991494803748	0.3454794171900061	1.4378545579398192	4262.703018233011	0.0626	0.44	0.21	0.228	0.002	0.023	0.0235
0.5750000000000001	0.9941530211969838	0.3503918417309245	1.4325467402850205	4218.950657555883	0.0626	0.44	0.21	0.228	0.002	0.023	0.0235
0.58	0.9913961144024136	0.3553658137339273	1.4272563276714458	4175.198296878755	0.0626	0.44	0.21	0.228	0.002	0.023	0.0235
0.585	0.9886284290966644	0.3604052436333255	1.421982571636493	4131.445936201628	0.0626	0.44	0.21	0.228	0.002	0.023	0.0235
0.59	0.9858499652797359	0.3655094511298156	1.4167247305258208	4087.6935755244995	0.0626	0.44	0.21	0.228	0.002	0.023	0.0235
0.595	0.9830607229516286	0.3706811669134445	1.4114820785675848	4043.941214847371	0.0626	0.44	0.21	0.228	0.002	0.023	0.0235
0.6	0.980260702112342	0.3759911696236487	1.4062534087876168	4000.1888541702433	0.0626	0.44	0.21	0.228	0.002	0.023	0.0235
0.605	0.9774499027618766	0.3813011801773237	1.4010380206324868	3956.436493493115	0.0626	0.44	0.21	0.228	0.002	0.023	0.0235
0.61	0.9746283249002321	0.38670380366789175	1.3958355648002188	3912.684132815987	0.0626	0.44	0.21	0.228	0.002	0.023	0.0235
0.615	0.9717959685274083	0.39212793796200857	1.3906455513860998	3868.9317721388593	0.0626	0.44	0.21	0.228	0.002	0.023	0.0235
0.62	0.9689528336434056	0.3977296401334498	1.385466964230228	3825.179411461731	0.0626	0.44	0.21	0.228	0.002	0.023	0.0235
0.625	0.9660989202482236	0.40335567530183736	1.3802987967003524	3781.4270507846027	0.0626	0.44	0.21	0.228	0.002	0.023	0.0235
0.63	0.9632342283418628	0.4090072029200689	1.3751410593370998	3737.674690107475	0.0626	0.44	0.21	0.228	0.002	0.023	0.0235
0.635	0.9603587579243229	0.4147888917972303	1.369993102023244	3693.9223294303465	0.0626	0.44	0.21	0.228	0.002	0.023	0.0235
0.64	0.9574725089956037	0.4207033175810202	1.3648536364783634	3650.169968753218	0.0626	0.44	0.21	0.228	0.002	0.023	0.0235
0.645	0.9545754815557056	0.4265603077189691	1.3597225578633167	3606.4176080760903	0.0626	0.44	0.21	0.228	0.002	0.023	0.0235
0.65	0.9516676756046286	0.4325319043558551	1.3545998881398114	3562.6652473989625	0.0626	0.44	0.21	0.228	0.002	0.023	0.0235
0.655	0.9487490911423722	0.4386641104566725	1.3494843590598835	3518.912886721834	0.0626	0.44	0.21	0.228	0.002	0.023	0.0235
0.66	0.945819728168937	0.4448249964176059	1.3443752461664435	3475.1605260447063	0.0626	0.44	0.21	0.228	0.002	0.023	0.0235
0.665	0.9428795866843226	0.4509969880119745	1.3392727118991332	3431.408165367578	0.0626	0.44	0.21	0.228	0.002	0.023	0.0235
0.67	0.9399286666885291	0.4573316250875524	1.3341761646804071	3387.6558046904497	0.0626	0.44	0.21	0.228	0.002	0.023	0.0235
0.675	0.9369669681815564	0.4636991326529485	1.3290849050235485	3343.9034440133223	0.0626	0.44	0.21	0.228	0.002	0.023	0.0235
0.68	0.9339944911634048	0.470098639725	1.323998979244012	3300.151083336194	0.0626	0.44	0.21	0.228	0.002	0.023	0.0235
0.685	0.9310112356340744	0.4766686140535362	1.3189176968885252	3256.3987226590657	0.0626	0.44	0.21	0.228	0.002	0.023	0.0235
0.6900000000000001	0.9280172015935646	0.4832506651282243	1.3138404896753808	3212.6463619819383	0.0626	0.44	0.21	0.228	0.002	0.023	0.0235
0.6950000000000001	0.9250123890418755	0.4898652863123982	1.3087675381731303	3168.8940013048095	0.0626	0.44	0.21	0.228	0.002	0.023	0.0235
0.7000000000000001	0.9219967979790079	0.4966553469617557	1.3036981789451012	3125.141640627682	0.0626	0.44	0.21	0.228	0.002	0.023	0.0235
0.705	0.9189704284049608	0.5033994811658165	1.2986321599114952	3081.3892799505543	0.0626	0.44	0.21	0.228	0.002	0.023	0.0235
0.71	0.9159332803197348	0.5103206968919382	1.2935692462194592	3037.636919273426	0.0626	0.44	0.21	0.228	0.002	0.023	0.0235
0.715	0.9128853537233296	0.5173144864174172	1.288508616813309	2993.8845585962986	0.0626	0.44	0.21	0.228	0.002	0.023	0.0235
0.72	0.9098266486157454	0.5243099129317728	1.2834503371799162	2950.1321979191703	0.0626	0.44	0.21	0.228	0.002	0.023	0.0235
0.725	0.9067571649969824	0.5314645895262449	1.2783940619381116	2906.379837242042	0.0626	0.44	0.21	0.228	0.002	0.023	0.0235
0.73	0.90367690286704	0.538592705177993	1.2733395811794714	2862.6274765649146	0.0626	0.44	0.21	0.228	0.002	0.023	0.0235
0.735	0.9005858622259186	0.5458840329894182	1.268286686610113	2818.875115887786	0.0626	0.44	0.21	0.228	0.002	0.023	0.0235
0.74	0.897484043073618	0.5532140497312297	1.2632348680461525	2775.1227552106584	0.0626	0.44	0.21	0.228	0.002	0.023	0.0235
0.745	0.8943714454101384	0.5605826965345841	1.2581842042557592	2731.37039453353	0.0626	0.44	0.21	0.228	0.002	0.023	0.0235
0.75	0.89124806923548	0.5681169040515008	1.2531342066963147	2687.618033856402	0.0626	0.44	0.21	0.228	0.002	0.023	0.0235
0.755	0.8881139145496424	0.5756905339487365	1.2480843949350129	2643.8656731792744	0.0626	0.44	0.21	0.228	0.002	0.023	0.0235
0.76	0.8849689813526256	0.5833053710106092	1.2430348528919837	2600.1133125021456	0.0626	0.44	0.21	0.228	0.002	0.023	0.0235
0.765	0.8818132696444299	0.5909837530124012	1.2379855579984074	2556.3609518250178	0.0626	0.44	0.21	0.228	0.002	0.023	0.0235
0.77	0.8786467794250546	0.5987436158724471	1.2329363174320895	2512.6085911478895	0.0626	0.44	0.21	0.228	0.002	0.023	0.0235
0.775	0.8754695106945009	0.6065442316009387	1.2278870396589852	2468.856230470761	0.0626	0.44	0.21	0.228	0.002	0.023	0.0235
0.78	0.8722814634527679	0.6145391051240573	1.2228371754237577	2425.1038697936333	0.0626	0.44	0.21	0.228	0.002	0.023	0.0235
0.785	0.8690826376998557	0.6225780317428176	1.2177861749953136	2381.3515091165054	0.0626	0.44	0.21	0.228	0.002	0.023	0.0235
0.79	0.8658730334357646	0.6305666210485563	1.2127344972158232	2337.599148439377	0.0626	0.44	0.21	0.228	0.002	0.023	0.0235
0.795	0.8626526506604942	0.6387561402153604	1.2076819681376048	2293.8467877622493	0.0626	0.44	0.21	0.228	0.002	0.023	0.0235
0.8	0.859421489374045	0.6469869535850422	1.2026280500575903	2250.094427085121	0.0626	0.44	0.21	0.228	0.002	0.023	0.0235
0.805	0.8561795495764166	0.6552336666075063	1.1975729471293073	2206.342066407993	0.0626	0.44	0.21	0.228	0.002	0.023	0.0235
0.81	0.8529268312676093	0.6635480270263082	1.1925167570653357	2162.589705730865	0.0626	0.44	0.21	0.228	0.002	0.023	0.0235
0.815	0.8496633344476227	0.6720410790275442	1.187458959102281	2118.837345053738	0.0626	0.44	0.21	0.228	0.002	0.023	0.0235
0.82	0.8463890591164571	0.6805785666190418	1.1823991329473245	2075.08498437661	0.0626	0.44	0.21	0.228	0.002	0.023	0.0235
0.825	0.8431040052741123	0.6890897128915242	1.1773376331412306	2031.3326236994817	0.0626	0.44	0.21	0.228	0.002	0.023	0.0235
0.83	0.8398081729205886	0.6977796244643656	1.172274317526289	1987.5802630223536	0.0626	0.44	0.21	0.228	0.002	0.023	0.0235
0.8349999999999999	0.8365015620558858	0.706445288091673	1.1672090329401708	1943.8279023452262	0.0626	0.44	0.21	0.228	0.002	0.023	0.0235
